SpectraSuite Data File
++++++++++++++++++++++++++++++++++++
Date: Sat Feb 06 14:59:04 EST 2021
User: ChG
Dark Spectrum Present: Yes
Reference Spectrum Present: Yes
Number of Sampled Component Spectra: 1
Spectrometers: HR4C4306
Integration Time (usec): 39709 (HR4C4306)
Spectra Averaged: 20 (HR4C4306)
Boxcar Smoothing: 5 (HR4C4306)
Correct for Electrical Dark: Yes (HR4C4306)
Strobe/Lamp Enabled: No (HR4C4306)
Correct for Detector Non-linearity: No (HR4C4306)
Correct for Stray Light: No (HR4C4306)
Number of Pixels in Processed Spectrum: 3648
>>>>>Begin Processed Spectral Data<<<<<
195.21	20.732
195.48	-16.414
195.75	-16.414
196.02	105.261
196.29	-4.296
196.56	225.975
196.83	77.792
197.10	51.972
197.37	58.547
197.65	62.861
197.92	79.767
198.19	68.388
198.46	72.482
198.73	83.987
199.00	116.524
199.27	142.460
199.54	43.305
199.81	76.038
200.09	180.715
200.36	-8.794
200.63	-63.969
200.90	59.143
201.17	55.945
201.44	-50.054
201.71	217.599
201.98	-175.634
202.25	-675.541
202.52	477.845
202.79	191.590
203.07	91.390
203.34	151.341
203.61	147.202
203.88	218.331
204.15	231.604
204.42	167.144
204.69	178.891
204.96	173.457
205.23	158.873
205.50	117.771
205.77	128.701
206.05	177.141
206.32	142.715
206.59	110.681
206.86	92.506
207.13	89.695
207.40	103.504
207.67	90.849
207.94	82.701
208.21	6.017
208.48	18.737
208.75	-180.292
209.02	31.785
209.29	208.277
209.57	1058.361
209.84	-14.442
210.11	-1238.029
210.38	393.055
210.65	159.602
210.92	199.417
211.19	151.809
211.46	162.211
211.73	242.341
212.00	327.911
212.27	290.655
212.54	272.392
212.81	237.307
213.08	212.569
213.36	182.268
213.63	236.337
213.90	198.930
214.17	197.842
214.44	165.717
214.71	47.066
214.98	19.482
215.25	-26.031
215.52	-25.186
215.79	-76.435
216.06	1210.389
216.33	124.206
216.60	566.228
216.87	645.725
217.14	386.682
217.41	47.697
217.68	-1.654
217.95	-73.555
218.23	-105.412
218.50	-138.558
218.77	-112.766
219.04	-359.759
219.31	363.837
219.58	196.309
219.85	49.855
220.12	154.136
220.39	111.344
220.66	152.972
220.93	155.666
221.20	71.484
221.47	94.937
221.74	114.463
222.01	88.594
222.28	136.330
222.55	138.730
222.82	136.985
223.09	113.758
223.36	100.109
223.63	79.037
223.90	57.445
224.17	70.201
224.44	62.340
224.72	65.057
224.99	71.689
225.26	68.643
225.53	73.831
225.80	73.863
226.07	67.876
226.34	35.034
226.61	38.940
226.88	30.453
227.15	-0.930
227.42	89.910
227.69	78.217
227.96	115.049
228.23	106.714
228.50	416.260
228.77	520.219
229.04	423.345
229.31	512.335
229.58	530.398
229.85	490.953
230.12	2252.394
230.39	410.203
230.66	1459.445
230.93	2765.893
231.20	262.179
231.47	75.709
231.74	147.845
232.01	148.716
232.28	83.627
232.55	64.111
232.82	87.000
233.09	64.729
233.36	71.271
233.63	71.084
233.90	72.480
234.17	84.075
234.44	100.801
234.71	59.217
234.98	39.411
235.25	18.153
235.52	-51.993
235.79	-71.281
236.06	-99.511
236.33	-109.905
236.60	-49.769
236.87	1.644
237.14	-8.023
237.41	-12.871
237.68	-19.962
237.95	40.539
238.22	75.240
238.49	84.335
238.76	70.920
239.03	96.664
239.30	92.625
239.57	112.368
239.84	99.740
240.11	103.366
240.38	80.832
240.65	85.734
240.92	104.289
241.19	112.077
241.46	109.336
241.73	104.676
242.00	87.020
242.27	109.440
242.54	144.881
242.81	159.654
243.08	209.204
243.35	388.035
243.62	230.696
243.89	133.244
244.16	97.915
244.43	142.776
244.70	200.172
244.97	408.589
245.24	512.739
245.51	135.745
245.78	123.875
246.05	111.242
246.32	120.060
246.59	105.729
246.86	152.161
247.13	178.850
247.40	126.810
247.67	122.962
247.94	109.383
248.20	104.735
248.47	100.978
248.74	95.742
249.01	91.361
249.28	73.573
249.55	80.558
249.82	56.745
250.09	56.519
250.36	50.508
250.63	32.740
250.90	29.510
251.17	34.403
251.44	31.476
251.71	39.438
251.98	26.160
252.25	7.643
252.52	12.824
252.79	24.658
253.06	19.205
253.33	31.029
253.60	105.038
253.87	115.383
254.14	88.835
254.41	156.565
254.67	118.188
254.94	76.808
255.21	119.912
255.48	86.702
255.75	70.002
256.02	59.863
256.29	56.671
256.56	30.227
256.83	32.061
257.10	51.937
257.37	45.238
257.64	49.694
257.91	75.592
258.18	65.402
258.45	63.758
258.72	55.243
258.99	57.762
259.25	62.250
259.52	73.435
259.79	82.075
260.06	66.145
260.33	70.292
260.60	66.734
260.87	65.478
261.14	79.128
261.41	78.364
261.68	95.972
261.95	117.990
262.22	158.248
262.49	138.045
262.76	147.778
263.02	165.609
263.29	143.139
263.56	165.706
263.83	146.587
264.10	177.681
264.37	211.070
264.64	276.871
264.91	268.487
265.18	243.581
265.45	339.606
265.72	310.227
265.99	372.472
266.26	192.537
266.52	103.952
266.79	-321.230
267.06	336.543
267.33	171.503
267.60	87.745
267.87	90.557
268.14	67.662
268.41	76.180
268.68	80.755
268.95	77.801
269.22	80.112
269.48	76.078
269.75	61.579
270.02	49.079
270.29	48.277
270.56	41.264
270.83	41.286
271.10	53.264
271.37	48.592
271.64	42.926
271.91	49.627
272.18	64.120
272.44	84.821
272.71	76.654
272.98	75.535
273.25	74.347
273.52	85.489
273.79	79.223
274.06	74.130
274.33	67.715
274.60	63.658
274.86	63.123
275.13	60.319
275.40	59.636
275.67	68.163
275.94	76.042
276.21	73.133
276.48	59.077
276.75	59.686
277.02	67.435
277.28	75.703
277.55	88.179
277.82	66.830
278.09	62.489
278.36	51.316
278.63	68.394
278.90	42.310
279.17	27.936
279.44	117.131
279.70	94.491
279.97	67.326
280.24	49.014
280.51	44.697
280.78	53.797
281.05	60.971
281.32	70.255
281.59	62.201
281.85	60.092
282.12	63.926
282.39	57.176
282.66	61.036
282.93	62.700
283.20	70.776
283.47	60.511
283.73	64.646
284.00	69.341
284.27	64.706
284.54	38.251
284.81	42.039
285.08	41.059
285.35	40.350
285.62	38.389
285.88	40.120
286.15	53.130
286.42	63.465
286.69	70.643
286.96	76.653
287.23	84.183
287.50	95.982
287.76	98.239
288.03	88.250
288.30	93.195
288.57	98.678
288.84	98.805
289.11	91.619
289.37	85.074
289.64	82.702
289.91	72.657
290.18	64.132
290.45	68.008
290.72	57.376
290.99	64.008
291.25	67.641
291.52	64.905
291.79	63.731
292.06	68.465
292.33	73.603
292.60	67.588
292.86	76.502
293.13	81.405
293.40	80.687
293.67	83.320
293.94	87.624
294.21	67.855
294.47	70.855
294.74	68.302
295.01	83.878
295.28	91.876
295.55	117.854
295.82	132.164
296.08	119.481
296.35	141.867
296.62	150.457
296.89	138.348
297.16	165.938
297.43	194.994
297.69	178.000
297.96	120.153
298.23	110.161
298.50	105.402
298.77	87.673
299.04	80.761
299.30	59.789
299.57	59.031
299.84	72.322
300.11	73.910
300.38	64.103
300.64	65.177
300.91	67.300
301.18	68.182
301.45	68.862
301.72	73.080
301.99	86.933
302.25	84.151
302.52	90.164
302.79	84.013
303.06	76.277
303.33	70.941
303.59	71.685
303.86	69.986
304.13	78.108
304.40	65.988
304.67	66.786
304.93	57.980
305.20	57.460
305.47	55.563
305.74	51.469
306.01	53.132
306.27	51.800
306.54	44.222
306.81	43.749
307.08	33.739
307.35	32.352
307.61	21.108
307.88	18.455
308.15	13.069
308.42	4.427
308.69	-8.621
308.95	-20.200
309.22	-13.962
309.49	-11.751
309.76	-0.768
310.03	-5.353
310.29	7.374
310.56	28.085
310.83	32.897
311.10	54.352
311.37	68.461
311.63	84.371
311.90	82.618
312.17	91.337
312.44	98.159
312.70	94.271
312.97	91.912
313.24	81.154
313.51	74.904
313.78	77.683
314.04	68.260
314.31	68.925
314.58	66.555
314.85	64.717
315.12	58.392
315.38	47.905
315.65	46.408
315.92	45.778
316.19	55.959
316.45	53.123
316.72	37.492
316.99	58.966
317.26	66.677
317.52	71.591
317.79	80.817
318.06	76.839
318.33	73.454
318.60	65.701
318.86	79.685
319.13	74.415
319.40	76.267
319.67	85.282
319.93	68.178
320.20	60.350
320.47	52.813
320.74	45.444
321.00	38.847
321.27	37.081
321.54	46.115
321.81	35.715
322.07	33.156
322.34	33.995
322.61	23.835
322.88	21.072
323.14	27.823
323.41	30.346
323.68	34.498
323.95	41.345
324.21	41.622
324.48	41.170
324.75	41.324
325.02	41.661
325.28	40.722
325.55	45.190
325.82	51.113
326.09	48.946
326.35	50.140
326.62	52.800
326.89	55.043
327.16	64.060
327.42	67.172
327.69	64.610
327.96	61.011
328.23	60.051
328.49	59.004
328.76	49.855
329.03	43.083
329.30	46.892
329.56	51.462
329.83	43.975
330.10	44.422
330.36	42.272
330.63	37.111
330.90	32.449
331.17	29.158
331.43	27.465
331.70	27.501
331.97	26.176
332.24	22.020
332.50	15.806
332.77	23.893
333.04	17.560
333.30	14.392
333.57	18.700
333.84	23.798
334.11	26.921
334.37	28.603
334.64	28.453
334.91	32.656
335.17	31.740
335.44	26.884
335.71	24.318
335.98	26.879
336.24	28.135
336.51	25.943
336.78	24.301
337.04	23.000
337.31	19.556
337.58	18.468
337.85	14.920
338.11	15.183
338.38	16.384
338.65	15.283
338.91	13.104
339.18	11.508
339.45	12.871
339.72	12.846
339.98	11.254
340.25	10.907
340.52	12.525
340.78	11.465
341.05	10.474
341.32	10.547
341.58	9.564
341.85	8.591
342.12	8.625
342.39	8.004
342.65	8.443
342.92	10.069
343.19	11.078
343.45	9.693
343.72	11.887
343.99	11.862
344.25	11.461
344.52	11.099
344.79	11.600
345.05	12.206
345.32	11.561
345.59	9.556
345.85	7.880
346.12	7.555
346.39	6.826
346.66	5.047
346.92	5.051
347.19	4.216
347.46	5.835
347.72	5.752
347.99	5.152
348.26	5.118
348.52	5.542
348.79	5.691
349.06	5.335
349.32	6.106
349.59	5.899
349.86	5.861
350.12	6.050
350.39	5.366
350.66	5.452
350.92	5.091
351.19	4.868
351.46	4.922
351.72	5.263
351.99	5.523
352.26	5.586
352.52	5.425
352.79	5.484
353.06	6.084
353.32	6.572
353.59	6.142
353.86	6.256
354.12	6.659
354.39	6.981
354.66	6.339
354.92	5.801
355.19	5.165
355.46	5.566
355.72	5.125
355.99	4.530
356.26	4.166
356.52	3.898
356.79	3.967
357.06	3.768
357.32	3.008
357.59	2.972
357.86	2.603
358.12	2.382
358.39	1.835
358.65	1.474
358.92	1.961
359.19	1.805
359.45	1.909
359.72	1.385
359.99	1.514
360.25	2.022
360.52	2.080
360.79	2.424
361.05	3.114
361.32	3.309
361.59	3.434
361.85	2.895
362.12	2.952
362.38	3.124
362.65	3.093
362.92	2.919
363.18	2.831
363.45	3.053
363.72	2.776
363.98	2.381
364.25	2.354
364.52	2.467
364.78	2.533
365.05	2.418
365.31	2.163
365.58	2.486
365.85	2.431
366.11	2.050
366.38	1.710
366.65	1.958
366.91	1.794
367.18	1.779
367.44	1.890
367.71	1.710
367.98	1.897
368.24	2.223
368.51	2.438
368.77	2.625
369.04	2.973
369.31	2.895
369.57	2.825
369.84	2.703
370.11	2.726
370.37	2.727
370.64	2.906
370.90	2.729
371.17	2.625
371.44	2.598
371.70	2.274
371.97	2.040
372.23	2.052
372.50	1.854
372.77	1.964
373.03	2.154
373.30	2.121
373.56	2.058
373.83	2.079
374.10	2.048
374.36	2.147
374.63	2.274
374.89	2.381
375.16	2.610
375.43	2.908
375.69	2.892
375.96	2.703
376.22	2.682
376.49	2.457
376.76	2.340
377.02	2.394
377.29	2.160
377.55	2.332
377.82	2.317
378.09	2.070
378.35	1.957
378.62	1.955
378.88	2.077
379.15	1.984
379.41	2.184
379.68	2.178
379.95	2.110
380.21	2.047
380.48	1.892
380.74	1.709
381.01	1.768
381.28	1.641
381.54	1.543
381.81	1.369
382.07	1.493
382.34	1.443
382.60	1.555
382.87	1.530
383.14	1.574
383.40	1.556
383.67	1.759
383.93	1.763
384.20	1.761
384.46	1.855
384.73	1.889
385.00	1.791
385.26	1.818
385.53	1.808
385.79	1.759
386.06	1.754
386.32	1.732
386.59	1.653
386.86	1.772
387.12	1.894
387.39	1.844
387.65	1.965
387.92	1.942
388.18	1.845
388.45	1.855
388.71	1.934
388.98	2.007
389.25	2.102
389.51	2.113
389.78	2.208
390.04	2.211
390.31	2.352
390.57	2.341
390.84	2.551
391.10	2.664
391.37	2.776
391.64	2.893
391.90	2.857
392.17	2.861
392.43	2.922
392.70	2.806
392.96	2.888
393.23	2.904
393.49	2.963
393.76	2.920
394.02	3.081
394.29	3.100
394.56	3.026
394.82	3.036
395.09	3.218
395.35	3.404
395.62	3.540
395.88	3.605
396.15	3.712
396.41	3.741
396.68	3.878
396.94	3.887
397.21	3.946
397.47	4.188
397.74	4.466
398.00	4.506
398.27	4.548
398.53	4.614
398.80	4.758
399.07	4.914
399.33	5.163
399.60	5.313
399.86	5.526
400.13	5.743
400.39	5.897
400.66	6.033
400.92	6.263
401.19	6.448
401.45	6.633
401.72	6.864
401.98	7.021
402.25	7.163
402.51	7.362
402.78	7.482
403.04	7.649
403.31	7.776
403.57	7.899
403.84	8.014
404.10	8.137
404.37	8.309
404.63	8.411
404.90	8.574
405.16	8.668
405.43	8.823
405.69	8.993
405.96	9.224
406.22	9.471
406.49	9.720
406.75	9.971
407.02	10.216
407.28	10.517
407.55	10.853
407.81	11.141
408.08	11.395
408.34	11.604
408.61	11.800
408.87	11.916
409.14	12.076
409.40	12.267
409.67	12.453
409.93	12.733
410.20	12.945
410.46	13.104
410.73	13.267
410.99	13.518
411.26	13.812
411.52	14.123
411.79	14.414
412.05	14.646
412.32	14.836
412.58	15.088
412.85	15.293
413.11	15.574
413.38	15.825
413.64	16.070
413.91	16.327
414.17	16.522
414.44	16.719
414.70	17.004
414.97	17.244
415.23	17.587
415.50	17.847
415.76	18.079
416.02	18.203
416.29	18.412
416.55	18.592
416.82	18.858
417.08	19.047
417.35	19.272
417.61	19.517
417.88	19.826
418.14	20.004
418.41	20.278
418.67	20.525
418.94	20.796
419.20	21.113
419.47	21.491
419.73	21.737
419.99	22.040
420.26	22.354
420.52	22.638
420.79	22.875
421.05	23.145
421.32	23.401
421.58	23.698
421.85	24.031
422.11	24.322
422.38	24.563
422.64	24.931
422.90	25.292
423.17	25.641
423.43	25.940
423.70	26.347
423.96	26.734
424.23	27.110
424.49	27.464
424.76	27.833
425.02	28.232
425.29	28.684
425.55	29.070
425.81	29.509
426.08	29.945
426.34	30.365
426.61	30.721
426.87	31.159
427.14	31.570
427.40	32.070
427.66	32.589
427.93	33.078
428.19	33.535
428.46	33.976
428.72	34.403
428.99	34.836
429.25	35.335
429.52	35.864
429.78	36.352
430.04	36.860
430.31	37.310
430.57	37.731
430.84	38.154
431.10	38.620
431.36	39.088
431.63	39.504
431.89	39.980
432.16	40.405
432.42	40.746
432.69	41.110
432.95	41.480
433.21	41.843
433.48	42.223
433.74	42.484
434.01	42.738
434.27	43.004
434.54	43.336
434.80	43.558
435.06	43.798
435.33	44.045
435.59	44.241
435.86	44.477
436.12	44.627
436.38	44.787
436.65	44.987
436.91	45.123
437.18	45.302
437.44	45.461
437.70	45.671
437.97	45.790
438.23	45.958
438.50	46.176
438.76	46.320
439.02	46.469
439.29	46.603
439.55	46.730
439.82	46.906
440.08	47.062
440.34	47.183
440.61	47.278
440.87	47.483
441.14	47.613
441.40	47.748
441.66	47.884
441.93	48.015
442.19	48.156
442.46	48.333
442.72	48.489
442.98	48.603
443.25	48.720
443.51	48.893
443.78	49.052
444.04	49.213
444.30	49.349
444.57	49.538
444.83	49.803
445.09	50.076
445.36	50.344
445.62	50.631
445.89	50.932
446.15	51.268
446.41	51.562
446.68	51.867
446.94	52.229
447.21	52.601
447.47	52.913
447.73	53.265
448.00	53.572
448.26	53.944
448.52	54.340
448.79	54.760
449.05	55.190
449.31	55.676
449.58	56.129
449.84	56.593
450.11	57.072
450.37	57.593
450.63	58.099
450.90	58.623
451.16	59.089
451.42	59.583
451.69	60.101
451.95	60.619
452.21	61.062
452.48	61.575
452.74	62.107
453.01	62.643
453.27	63.194
453.53	63.713
453.80	64.212
454.06	64.684
454.32	65.064
454.59	65.459
454.85	65.855
455.11	66.317
455.38	66.747
455.64	67.121
455.90	67.433
456.17	67.780
456.43	68.134
456.69	68.420
456.96	68.730
457.22	69.139
457.49	69.476
457.75	69.740
458.01	69.999
458.28	70.201
458.54	70.400
458.80	70.557
459.07	70.637
459.33	70.705
459.59	70.806
459.86	70.811
460.12	70.747
460.38	70.710
460.65	70.694
460.91	70.617
461.17	70.533
461.44	70.427
461.70	70.356
461.96	70.256
462.23	70.096
462.49	69.888
462.75	69.799
463.02	69.668
463.28	69.497
463.54	69.298
463.81	69.072
464.07	68.855
464.33	68.618
464.59	68.295
464.86	67.998
465.12	67.739
465.38	67.565
465.65	67.340
465.91	67.110
466.17	66.859
466.44	66.669
466.70	66.496
466.96	66.303
467.23	66.130
467.49	66.012
467.75	65.843
468.02	65.670
468.28	65.492
468.54	65.246
468.80	65.065
469.07	64.895
469.33	64.660
469.59	64.487
469.86	64.366
470.12	64.278
470.38	64.146
470.65	64.096
470.91	64.024
471.17	63.913
471.44	63.889
471.70	63.874
471.96	63.876
472.22	63.879
472.49	63.908
472.75	63.911
473.01	63.885
473.28	63.943
473.54	64.001
473.80	64.087
474.06	64.199
474.33	64.278
474.59	64.324
474.85	64.434
475.12	64.598
475.38	64.751
475.64	64.900
475.90	65.065
476.17	65.256
476.43	65.432
476.69	65.651
476.96	65.856
477.22	66.083
477.48	66.402
477.74	66.658
478.01	66.940
478.27	67.192
478.53	67.454
478.80	67.762
479.06	68.047
479.32	68.341
479.58	68.631
479.85	68.950
480.11	69.313
480.37	69.622
480.63	69.992
480.90	70.369
481.16	70.774
481.42	71.172
481.69	71.568
481.95	71.946
482.21	72.330
482.47	72.747
482.74	73.179
483.00	73.629
483.26	74.130
483.52	74.604
483.79	75.036
484.05	75.477
484.31	75.941
484.57	76.426
484.84	76.889
485.10	77.353
485.36	77.782
485.62	78.186
485.89	78.565
486.15	78.931
486.41	79.293
486.67	79.642
486.94	79.927
487.20	80.212
487.46	80.504
487.72	80.817
487.99	81.137
488.25	81.430
488.51	81.741
488.77	82.029
489.04	82.236
489.30	82.391
489.56	82.539
489.82	82.739
490.09	82.877
490.35	82.929
490.61	83.022
490.87	83.081
491.14	83.138
491.40	83.187
491.66	83.166
491.92	83.132
492.18	83.104
492.45	83.027
492.71	82.883
492.97	82.782
493.23	82.726
493.50	82.600
493.76	82.448
494.02	82.258
494.28	82.082
494.55	81.962
494.81	81.829
495.07	81.696
495.33	81.579
495.59	81.463
495.86	81.249
496.12	80.989
496.38	80.681
496.64	80.408
496.91	80.140
497.17	79.824
497.43	79.480
497.69	79.150
497.95	78.772
498.22	78.400
498.48	78.046
498.74	77.729
499.00	77.403
499.26	77.121
499.53	76.763
499.79	76.433
500.05	76.079
500.31	75.759
500.57	75.453
500.84	75.177
501.10	74.900
501.36	74.577
501.62	74.284
501.88	74.022
502.15	73.757
502.41	73.522
502.67	73.262
502.93	73.008
503.19	72.708
503.46	72.422
503.72	72.140
503.98	71.882
504.24	71.654
504.50	71.428
504.77	71.172
505.03	70.920
505.29	70.707
505.55	70.512
505.81	70.323
506.08	70.112
506.34	69.887
506.60	69.718
506.86	69.581
507.12	69.484
507.39	69.378
507.65	69.298
507.91	69.216
508.17	69.136
508.43	69.072
508.69	69.007
508.96	68.953
509.22	68.913
509.48	68.872
509.74	68.796
510.00	68.703
510.26	68.625
510.53	68.562
510.79	68.528
511.05	68.503
511.31	68.505
511.57	68.562
511.84	68.663
512.10	68.752
512.36	68.802
512.62	68.851
512.88	68.886
513.14	68.991
513.41	69.110
513.67	69.250
513.93	69.422
514.19	69.644
514.45	69.851
514.71	70.054
514.97	70.294
515.24	70.552
515.50	70.825
515.76	71.142
516.02	71.410
516.28	71.639
516.54	71.850
516.81	72.023
517.07	72.125
517.33	72.241
517.59	72.376
517.85	72.518
518.11	72.729
518.37	72.947
518.64	73.173
518.90	73.398
519.16	73.642
519.42	73.896
519.68	74.176
519.94	74.531
520.20	74.894
520.47	75.228
520.73	75.556
520.99	75.829
521.25	76.130
521.51	76.405
521.77	76.718
522.03	77.012
522.30	77.287
522.56	77.543
522.82	77.763
523.08	77.980
523.34	78.212
523.60	78.450
523.86	78.708
524.12	78.939
524.39	79.185
524.65	79.430
524.91	79.720
525.17	80.037
525.43	80.355
525.69	80.642
525.95	80.918
526.21	81.196
526.48	81.490
526.74	81.778
527.00	82.086
527.26	82.406
527.52	82.703
527.78	82.968
528.04	83.215
528.30	83.420
528.57	83.619
528.83	83.786
529.09	83.953
529.35	84.093
529.61	84.213
529.87	84.336
530.13	84.431
530.39	84.487
530.65	84.522
530.92	84.519
531.18	84.547
531.44	84.629
531.70	84.725
531.96	84.847
532.22	84.977
532.48	85.076
532.74	85.106
533.00	85.141
533.26	85.179
533.53	85.264
533.79	85.372
534.05	85.443
534.31	85.452
534.57	85.476
534.83	85.447
535.09	85.388
535.35	85.325
535.61	85.267
535.87	85.182
536.13	85.099
536.40	84.942
536.66	84.770
536.92	84.602
537.18	84.451
537.44	84.292
537.70	84.127
537.96	83.952
538.22	83.773
538.48	83.583
538.74	83.388
539.00	83.178
539.26	83.007
539.53	82.866
539.79	82.761
540.05	82.604
540.31	82.403
540.57	82.173
540.83	81.954
541.09	81.764
541.35	81.597
541.61	81.460
541.87	81.322
542.13	81.125
542.39	80.883
542.65	80.608
542.91	80.358
543.18	80.133
543.44	79.931
543.70	79.711
543.96	79.466
544.22	79.206
544.48	78.931
544.74	78.644
545.00	78.386
545.26	78.154
545.52	77.942
545.78	77.761
546.04	77.585
546.30	77.394
546.56	77.204
546.82	76.995
547.08	76.799
547.34	76.588
547.61	76.384
547.87	76.215
548.13	76.031
548.39	75.830
548.65	75.609
548.91	75.361
549.17	75.152
549.43	74.960
549.69	74.822
549.95	74.700
550.21	74.587
550.47	74.496
550.73	74.372
550.99	74.248
551.25	74.146
551.51	74.055
551.77	73.992
552.03	73.909
552.29	73.843
552.55	73.766
552.81	73.690
553.07	73.615
553.33	73.555
553.59	73.523
553.85	73.485
554.12	73.470
554.38	73.462
554.64	73.444
554.90	73.443
555.16	73.417
555.42	73.389
555.68	73.358
555.94	73.365
556.20	73.362
556.46	73.367
556.72	73.403
556.98	73.416
557.24	73.437
557.50	73.486
557.76	73.526
558.02	73.573
558.28	73.626
558.54	73.679
558.80	73.725
559.06	73.798
559.32	73.871
559.58	73.937
559.84	74.002
560.10	74.068
560.36	74.135
560.62	74.225
560.88	74.306
561.14	74.401
561.40	74.534
561.66	74.673
561.92	74.789
562.18	74.913
562.44	75.034
562.70	75.166
562.96	75.312
563.22	75.456
563.48	75.599
563.74	75.786
564.00	75.997
564.26	76.246
564.52	76.497
564.78	76.771
565.04	77.037
565.30	77.284
565.56	77.533
565.82	77.756
566.08	77.965
566.34	78.196
566.60	78.415
566.86	78.590
567.12	78.696
567.38	78.791
567.64	78.899
567.90	79.029
568.16	79.203
568.42	79.359
568.68	79.510
568.94	79.672
569.20	79.852
569.46	80.067
569.72	80.290
569.98	80.509
570.24	80.746
570.50	80.945
570.76	81.147
571.02	81.364
571.27	81.618
571.53	81.905
571.79	82.192
572.05	82.462
572.31	82.725
572.57	83.002
572.83	83.273
573.09	83.534
573.35	83.816
573.61	84.075
573.87	84.302
574.13	84.483
574.39	84.568
574.65	84.605
574.91	84.596
575.17	84.555
575.43	84.519
575.69	84.528
575.95	84.519
576.21	84.488
576.47	84.491
576.73	84.486
576.99	84.536
577.25	84.679
577.51	84.893
577.76	85.121
578.02	85.356
578.28	85.570
578.54	85.760
578.80	85.958
579.06	86.172
579.32	86.357
579.58	86.569
579.84	86.756
580.10	86.918
580.36	87.057
580.62	87.212
580.88	87.378
581.14	87.530
581.40	87.667
581.66	87.800
581.92	87.900
582.18	87.964
582.43	88.003
582.69	88.018
582.95	88.008
583.21	87.991
583.47	87.988
583.73	87.970
583.99	87.954
584.25	87.934
584.51	87.909
584.77	87.886
585.03	87.908
585.29	87.958
585.55	87.984
585.80	88.012
586.06	88.003
586.32	87.923
586.58	87.817
586.84	87.707
587.10	87.594
587.36	87.478
587.62	87.359
587.88	87.231
588.14	87.094
588.40	86.980
588.66	86.883
588.91	86.800
589.17	86.755
589.43	86.704
589.69	86.646
589.95	86.578
590.21	86.484
590.47	86.412
590.73	86.306
590.99	86.180
591.25	86.019
591.51	85.827
591.76	85.643
592.02	85.444
592.28	85.247
592.54	85.021
592.80	84.782
593.06	84.531
593.32	84.230
593.58	83.921
593.84	83.585
594.10	83.287
594.35	83.014
594.61	82.716
594.87	82.441
595.13	82.159
595.39	81.885
595.65	81.605
595.91	81.329
596.17	81.072
596.43	80.846
596.68	80.669
596.94	80.481
597.20	80.277
597.46	80.036
597.72	79.730
597.98	79.417
598.24	79.147
598.50	78.925
598.75	78.772
599.01	78.642
599.27	78.508
599.53	78.348
599.79	78.180
600.05	78.024
600.31	77.900
600.57	77.791
600.82	77.648
601.08	77.468
601.34	77.250
601.60	77.006
601.86	76.745
602.12	76.475
602.38	76.220
602.64	75.974
602.89	75.721
603.15	75.510
603.41	75.340
603.67	75.219
603.93	75.138
604.19	75.062
604.45	74.973
604.70	74.897
604.96	74.808
605.22	74.689
605.48	74.551
605.74	74.399
606.00	74.232
606.26	74.073
606.51	73.971
606.77	73.884
607.03	73.792
607.29	73.690
607.55	73.579
607.81	73.469
608.06	73.383
608.32	73.317
608.58	73.268
608.84	73.217
609.10	73.137
609.36	73.020
609.62	72.861
609.87	72.720
610.13	72.608
610.39	72.523
610.65	72.472
610.91	72.449
611.17	72.440
611.42	72.456
611.68	72.486
611.94	72.514
612.20	72.530
612.46	72.566
612.72	72.607
612.97	72.670
613.23	72.744
613.49	72.826
613.75	72.940
614.01	73.070
614.27	73.166
614.52	73.265
614.78	73.386
615.04	73.490
615.30	73.552
615.56	73.595
615.81	73.583
616.07	73.570
616.33	73.532
616.59	73.461
616.85	73.367
617.11	73.292
617.36	73.214
617.62	73.152
617.88	73.110
618.14	73.140
618.40	73.203
618.65	73.300
618.91	73.367
619.17	73.431
619.43	73.456
619.69	73.474
619.94	73.513
620.20	73.578
620.46	73.655
620.72	73.762
620.98	73.876
621.23	74.004
621.49	74.142
621.75	74.295
622.01	74.459
622.27	74.616
622.52	74.774
622.78	74.922
623.04	75.055
623.30	75.182
623.56	75.315
623.81	75.435
624.07	75.525
624.33	75.607
624.59	75.675
624.85	75.756
625.10	75.876
625.36	76.012
625.62	76.137
625.88	76.247
626.13	76.340
626.39	76.404
626.65	76.462
626.91	76.550
627.17	76.666
627.42	76.836
627.68	77.035
627.94	77.236
628.20	77.461
628.46	77.672
628.71	77.860
628.97	78.026
629.23	78.202
629.49	78.384
629.74	78.541
630.00	78.664
630.26	78.776
630.52	78.882
630.77	78.990
631.03	79.106
631.29	79.252
631.55	79.435
631.81	79.652
632.06	79.867
632.32	80.083
632.58	80.299
632.84	80.534
633.09	80.759
633.35	80.966
633.61	81.153
633.87	81.331
634.12	81.525
634.38	81.711
634.64	81.918
634.90	82.144
635.15	82.355
635.41	82.542
635.67	82.698
635.93	82.833
636.18	82.951
636.44	83.101
636.70	83.261
636.96	83.428
637.21	83.625
637.47	83.782
637.73	83.927
637.99	84.076
638.24	84.252
638.50	84.436
638.76	84.641
639.02	84.840
639.27	85.054
639.53	85.246
639.79	85.402
640.04	85.516
640.30	85.640
640.56	85.760
640.82	85.881
641.07	86.017
641.33	86.177
641.59	86.331
641.85	86.498
642.10	86.627
642.36	86.724
642.62	86.822
642.87	86.937
643.13	87.067
643.39	87.211
643.65	87.356
643.90	87.482
644.16	87.592
644.42	87.672
644.68	87.754
644.93	87.818
645.19	87.944
645.45	88.077
645.70	88.212
645.96	88.315
646.22	88.380
646.48	88.434
646.73	88.490
646.99	88.547
647.25	88.643
647.50	88.747
647.76	88.860
648.02	88.926
648.28	88.951
648.53	88.952
648.79	88.959
649.05	88.968
649.30	88.945
649.56	88.902
649.82	88.866
650.07	88.757
650.33	88.625
650.59	88.483
650.85	88.299
651.10	88.182
651.36	88.117
651.62	88.063
651.87	88.046
652.13	88.058
652.39	88.070
652.64	88.048
652.90	88.062
653.16	88.091
653.41	88.119
653.67	88.189
653.93	88.218
654.18	88.212
654.44	88.214
654.70	88.200
654.96	88.184
655.21	88.162
655.47	88.120
655.73	88.076
655.98	87.981
656.24	87.914
656.50	87.844
656.75	87.774
657.01	87.688
657.27	87.578
657.52	87.472
657.78	87.335
658.04	87.182
658.29	87.030
658.55	86.870
658.81	86.773
659.06	86.686
659.32	86.634
659.58	86.601
659.83	86.580
660.09	86.545
660.35	86.506
660.60	86.497
660.86	86.481
661.12	86.479
661.37	86.465
661.63	86.431
661.89	86.353
662.14	86.197
662.40	86.000
662.66	85.779
662.91	85.524
663.17	85.212
663.43	84.866
663.68	84.533
663.94	84.175
664.19	83.855
664.45	83.506
664.71	83.176
664.96	82.884
665.22	82.628
665.48	82.425
665.73	82.298
665.99	82.235
666.25	82.226
666.50	82.237
666.76	82.270
667.02	82.271
667.27	82.278
667.53	82.286
667.78	82.288
668.04	82.275
668.30	82.217
668.55	82.147
668.81	82.045
669.07	81.886
669.32	81.721
669.58	81.577
669.84	81.441
670.09	81.301
670.35	81.145
670.60	80.988
670.86	80.835
671.12	80.693
671.37	80.546
671.63	80.400
671.89	80.288
672.14	80.156
672.40	79.992
672.65	79.819
672.91	79.648
673.17	79.467
673.42	79.277
673.68	79.088
673.93	78.886
674.19	78.671
674.45	78.460
674.70	78.254
674.96	78.067
675.22	77.909
675.47	77.764
675.73	77.644
675.98	77.545
676.24	77.463
676.50	77.360
676.75	77.255
677.01	77.140
677.26	76.993
677.52	76.803
677.78	76.598
678.03	76.384
678.29	76.170
678.54	75.951
678.80	75.724
679.06	75.517
679.31	75.349
679.57	75.209
679.82	75.091
680.08	74.977
680.34	74.890
680.59	74.806
680.85	74.717
681.10	74.626
681.36	74.537
681.62	74.478
681.87	74.423
682.13	74.344
682.38	74.250
682.64	74.170
682.89	74.112
683.15	74.061
683.41	74.031
683.66	74.024
683.92	74.048
684.17	74.099
684.43	74.121
684.68	74.145
684.94	74.190
685.20	74.268
685.45	74.328
685.71	74.424
685.96	74.526
686.22	74.615
686.47	74.702
686.73	74.733
686.99	74.721
687.24	74.706
687.50	74.640
687.75	74.564
688.01	74.457
688.26	74.352
688.52	74.211
688.78	74.064
689.03	73.920
689.29	73.754
689.54	73.617
689.80	73.480
690.05	73.362
690.31	73.267
690.56	73.178
690.82	73.121
691.08	73.097
691.33	73.108
691.59	73.156
691.84	73.221
692.10	73.327
692.35	73.433
692.61	73.556
692.86	73.639
693.12	73.722
693.38	73.776
693.63	73.814
693.89	73.844
694.14	73.859
694.40	73.879
694.65	73.879
694.91	73.856
695.16	73.874
695.42	73.892
695.67	73.960
695.93	74.029
696.18	74.086
696.44	74.148
696.70	74.189
696.95	74.231
697.21	74.255
697.46	74.296
697.72	74.350
697.97	74.353
698.23	74.348
698.48	74.331
698.74	74.336
698.99	74.378
699.25	74.420
699.50	74.484
699.76	74.574
700.01	74.654
700.27	74.727
700.52	74.809
700.78	74.910
701.03	75.044
701.29	75.152
701.54	75.283
701.80	75.424
702.06	75.551
702.31	75.668
702.57	75.754
702.82	75.851
703.08	75.952
703.33	76.066
703.59	76.191
703.84	76.341
704.10	76.494
704.35	76.618
704.61	76.690
704.86	76.746
705.12	76.780
705.37	76.833
705.63	76.869
705.88	76.932
706.14	77.040
706.39	77.187
706.65	77.334
706.90	77.527
707.16	77.726
707.41	77.929
707.67	78.134
707.92	78.339
708.18	78.528
708.43	78.731
708.69	78.919
708.94	79.048
709.20	79.114
709.45	79.153
709.70	79.193
709.96	79.216
710.21	79.272
710.47	79.373
710.72	79.499
710.98	79.661
711.23	79.830
711.49	79.976
711.74	80.102
712.00	80.260
712.25	80.418
712.51	80.581
712.76	80.783
713.02	81.031
713.27	81.266
713.53	81.486
713.78	81.653
714.04	81.809
714.29	81.989
714.55	82.186
714.80	82.389
715.05	82.590
715.31	82.762
715.56	82.916
715.82	83.048
716.07	83.203
716.33	83.352
716.58	83.498
716.84	83.635
717.09	83.705
717.35	83.756
717.60	83.760
717.86	83.772
718.11	83.795
718.36	83.821
718.62	83.820
718.87	83.821
719.13	83.814
719.38	83.829
719.64	83.861
719.89	83.981
720.15	84.155
720.40	84.376
720.65	84.640
720.91	84.897
721.16	85.144
721.42	85.393
721.67	85.570
721.93	85.732
722.18	85.873
722.44	86.007
722.69	86.116
722.94	86.218
723.20	86.309
723.45	86.331
723.71	86.354
723.96	86.335
724.22	86.345
724.47	86.398
724.72	86.478
724.98	86.583
725.23	86.654
725.49	86.729
725.74	86.788
726.00	86.816
726.25	86.865
726.50	86.911
726.76	87.024
727.01	87.114
727.27	87.232
727.52	87.356
727.78	87.461
728.03	87.612
728.28	87.773
728.54	87.929
728.79	88.094
729.05	88.260
729.30	88.368
729.55	88.424
729.81	88.449
730.06	88.464
730.32	88.495
730.57	88.528
730.83	88.533
731.08	88.508
731.33	88.446
731.59	88.387
731.84	88.322
732.10	88.335
732.35	88.383
732.60	88.476
732.86	88.560
733.11	88.646
733.37	88.752
733.62	88.872
733.87	88.979
734.13	89.072
734.38	89.138
734.64	89.140
734.89	89.117
735.14	89.042
735.40	88.946
735.65	88.871
735.90	88.779
736.16	88.695
736.41	88.607
736.67	88.546
736.92	88.451
737.17	88.350
737.43	88.302
737.68	88.234
737.94	88.209
738.19	88.199
738.44	88.193
738.70	88.199
738.95	88.201
739.20	88.197
739.46	88.138
739.71	88.107
739.97	88.078
740.22	88.044
740.47	88.029
740.73	87.964
740.98	87.853
741.23	87.679
741.49	87.489
741.74	87.298
742.00	87.144
742.25	87.067
742.50	87.047
742.76	87.079
743.01	87.139
743.26	87.184
743.52	87.279
743.77	87.377
744.02	87.493
744.28	87.582
744.53	87.663
744.79	87.716
745.04	87.727
745.29	87.673
745.55	87.590
745.80	87.485
746.05	87.355
746.31	87.184
746.56	86.993
746.81	86.791
747.07	86.598
747.32	86.359
747.57	86.077
747.83	85.775
748.08	85.541
748.33	85.327
748.59	85.083
748.84	84.842
749.09	84.604
749.35	84.412
749.60	84.205
749.85	84.013
750.11	83.875
750.36	83.776
750.61	83.721
750.87	83.646
751.12	83.519
751.37	83.400
751.63	83.316
751.88	83.250
752.13	83.177
752.39	83.136
752.64	83.089
752.89	83.052
753.15	83.009
753.40	82.949
753.65	82.848
753.91	82.809
754.16	82.787
754.41	82.786
754.67	82.778
754.92	82.760
755.17	82.714
755.43	82.671
755.68	82.603
755.93	82.518
756.19	82.412
756.44	82.345
756.69	82.241
756.95	82.138
757.20	81.989
757.45	81.839
757.70	81.674
757.96	81.494
758.21	81.281
758.46	81.060
758.72	80.863
758.97	80.698
759.22	80.549
759.48	80.413
759.73	80.253
759.98	80.079
760.23	79.891
760.49	79.716
760.74	79.538
760.99	79.380
761.25	79.212
761.50	79.046
761.75	78.856
762.01	78.633
762.26	78.432
762.51	78.293
762.76	78.192
763.02	78.125
763.27	78.116
763.52	78.139
763.78	78.173
764.03	78.211
764.28	78.209
764.53	78.234
764.79	78.264
765.04	78.284
765.29	78.269
765.55	78.249
765.80	78.215
766.05	78.146
766.30	78.078
766.56	78.053
766.81	78.038
767.06	78.062
767.31	78.080
767.57	78.130
767.82	78.174
768.07	78.200
768.33	78.227
768.58	78.239
768.83	78.235
769.08	78.214
769.34	78.097
769.59	77.989
769.84	77.835
770.09	77.669
770.35	77.427
770.60	77.141
770.85	76.844
771.10	76.524
771.36	76.214
771.61	75.904
771.86	75.605
772.11	75.359
772.37	75.118
772.62	74.925
772.87	74.726
773.12	74.608
773.38	74.530
773.63	74.468
773.88	74.431
774.13	74.411
774.39	74.381
774.64	74.321
774.89	74.192
775.14	74.035
775.40	73.831
775.65	73.622
775.90	73.358
776.15	73.114
776.41	72.873
776.66	72.641
776.91	72.417
777.16	72.212
777.42	72.078
777.67	72.018
777.92	71.971
778.17	71.967
778.42	71.993
778.68	72.049
778.93	72.100
779.18	72.166
779.43	72.227
779.69	72.293
779.94	72.370
780.19	72.424
780.44	72.483
780.69	72.548
780.95	72.593
781.20	72.614
781.45	72.612
781.70	72.595
781.96	72.546
782.21	72.489
782.46	72.432
782.71	72.391
782.96	72.347
783.22	72.286
783.47	72.248
783.72	72.232
783.97	72.213
784.22	72.189
784.48	72.178
784.73	72.185
784.98	72.204
785.23	72.216
785.48	72.202
785.74	72.171
785.99	72.146
786.24	72.089
786.49	71.998
786.74	71.917
787.00	71.844
787.25	71.758
787.50	71.662
787.75	71.571
788.00	71.469
788.26	71.413
788.51	71.344
788.76	71.289
789.01	71.236
789.26	71.204
789.52	71.171
789.77	71.146
790.02	71.134
790.27	71.139
790.52	71.146
790.78	71.196
791.03	71.209
791.28	71.243
791.53	71.280
791.78	71.306
792.03	71.334
792.29	71.368
792.54	71.397
792.79	71.425
793.04	71.464
793.29	71.511
793.54	71.497
793.80	71.505
794.05	71.514
794.30	71.522
794.55	71.538
794.80	71.538
795.06	71.500
795.31	71.485
795.56	71.458
795.81	71.455
796.06	71.440
796.31	71.443
796.56	71.444
796.82	71.425
797.07	71.393
797.32	71.393
797.57	71.453
797.82	71.547
798.07	71.654
798.33	71.794
798.58	71.923
798.83	72.031
799.08	72.145
799.33	72.254
799.58	72.371
799.83	72.480
800.09	72.572
800.34	72.626
800.59	72.701
800.84	72.780
801.09	72.840
801.34	72.895
801.59	72.982
801.85	73.091
802.10	73.227
802.35	73.384
802.60	73.568
802.85	73.760
803.10	73.968
803.35	74.139
803.61	74.286
803.86	74.444
804.11	74.581
804.36	74.669
804.61	74.759
804.86	74.825
805.11	74.892
805.36	74.981
805.62	75.062
805.87	75.120
806.12	75.216
806.37	75.288
806.62	75.311
806.87	75.337
807.12	75.395
807.37	75.413
807.63	75.409
807.88	75.392
808.13	75.326
808.38	75.271
808.63	75.230
808.88	75.205
809.13	75.200
809.38	75.243
809.64	75.307
809.89	75.401
810.14	75.547
810.39	75.703
810.64	75.841
810.89	75.997
811.14	76.176
811.39	76.349
811.64	76.505
811.89	76.673
812.15	76.813
812.40	76.935
812.65	76.974
812.90	76.952
813.15	76.909
813.40	76.866
813.65	76.788
813.90	76.690
814.15	76.581
814.40	76.427
814.66	76.281
814.91	76.136
815.16	76.016
815.41	75.960
815.66	75.948
815.91	75.979
816.16	76.063
816.41	76.164
816.66	76.290
816.91	76.423
817.16	76.653
817.41	76.877
817.67	77.144
817.92	77.422
818.17	77.687
818.42	77.955
818.67	78.269
818.92	78.580
819.17	78.918
819.42	79.228
819.67	79.515
819.92	79.723
820.17	79.888
820.42	79.995
820.67	80.063
820.92	80.154
821.18	80.210
821.43	80.184
821.68	80.100
821.93	80.029
822.18	79.928
822.43	79.863
822.68	79.846
822.93	79.844
823.18	79.865
823.43	79.904
823.68	79.976
823.93	80.063
824.18	80.157
824.43	80.303
824.68	80.414
824.93	80.570
825.18	80.739
825.44	80.913
825.69	81.113
825.94	81.377
826.19	81.619
826.44	81.817
826.69	81.987
826.94	82.199
827.19	82.369
827.44	82.536
827.69	82.601
827.94	82.631
828.19	82.619
828.44	82.607
828.69	82.526
828.94	82.482
829.19	82.500
829.44	82.534
829.69	82.567
829.94	82.686
830.19	82.809
830.44	83.003
830.69	83.219
830.94	83.381
831.19	83.569
831.44	83.724
831.69	83.859
831.94	83.905
832.19	83.956
832.44	83.998
832.70	83.960
832.95	83.923
833.20	83.897
833.45	83.846
833.70	83.809
833.95	83.747
834.20	83.738
834.45	83.711
834.70	83.704
834.95	83.787
835.20	83.853
835.45	83.943
835.70	84.029
835.95	84.083
836.20	84.149
836.45	84.237
836.70	84.280
836.95	84.342
837.20	84.428
837.45	84.545
837.70	84.562
837.95	84.616
838.20	84.633
838.45	84.693
838.70	84.845
838.95	85.024
839.20	85.245
839.45	85.544
839.70	85.812
839.95	86.107
840.20	86.369
840.45	86.605
840.70	86.797
840.95	87.076
841.20	87.295
841.45	87.432
841.70	87.542
841.95	87.584
842.20	87.530
842.45	87.503
842.70	87.411
842.95	87.289
843.20	87.215
843.44	87.098
843.69	86.953
843.94	86.868
844.19	86.795
844.44	86.749
844.69	86.758
844.94	86.838
845.19	86.911
845.44	87.012
845.69	87.187
845.94	87.327
846.19	87.519
846.44	87.705
846.69	87.840
846.94	87.988
847.19	88.081
847.44	88.204
847.69	88.276
847.94	88.295
848.19	88.342
848.44	88.352
848.69	88.334
848.94	88.273
849.19	88.203
849.44	88.175
849.69	88.140
849.94	88.130
850.19	88.024
850.43	87.968
850.68	87.940
850.93	87.902
851.18	87.866
851.43	87.896
851.68	88.013
851.93	88.109
852.18	88.202
852.43	88.325
852.68	88.456
852.93	88.655
853.18	88.880
853.43	89.055
853.68	89.201
853.93	89.258
854.18	89.274
854.43	89.232
854.68	89.179
854.92	89.068
855.17	88.904
855.42	88.765
855.67	88.583
855.92	88.317
856.17	88.112
856.42	87.879
856.67	87.725
856.92	87.635
857.17	87.516
857.42	87.426
857.67	87.404
857.92	87.369
858.16	87.329
858.41	87.342
858.66	87.396
858.91	87.469
859.16	87.564
859.41	87.643
859.66	87.697
859.91	87.765
860.16	87.820
860.41	87.832
860.66	87.817
860.91	87.786
861.15	87.710
861.40	87.629
861.65	87.528
861.90	87.432
862.15	87.366
862.40	87.220
862.65	87.091
862.90	86.934
863.15	86.810
863.40	86.754
863.64	86.681
863.89	86.646
864.14	86.648
864.39	86.659
864.64	86.661
864.89	86.593
865.14	86.602
865.39	86.526
865.64	86.493
865.89	86.382
866.13	86.220
866.38	86.101
866.63	85.939
866.88	85.752
867.13	85.525
867.38	85.313
867.63	85.193
867.88	85.072
868.13	85.038
868.37	84.960
868.62	84.971
868.87	85.004
869.12	85.003
869.37	85.047
869.62	85.061
869.87	85.060
870.12	84.989
870.36	84.860
870.61	84.689
870.86	84.507
871.11	84.324
871.36	84.144
871.61	84.004
871.86	83.863
872.10	83.719
872.35	83.603
872.60	83.557
872.85	83.534
873.10	83.545
873.35	83.564
873.60	83.571
873.84	83.596
874.09	83.577
874.34	83.543
874.59	83.500
874.84	83.373
875.09	83.239
875.34	83.092
875.58	82.937
875.83	82.825
876.08	82.741
876.33	82.650
876.58	82.581
876.83	82.537
877.08	82.440
877.32	82.386
877.57	82.424
877.82	82.437
878.07	82.389
878.32	82.421
878.57	82.405
878.81	82.322
879.06	82.244
879.31	82.135
879.56	82.000
879.81	81.907
880.06	81.748
880.30	81.571
880.55	81.449
880.80	81.389
881.05	81.310
881.30	81.168
881.55	81.123
881.79	81.077
882.04	81.042
882.29	80.984
882.54	80.911
882.79	80.865
883.04	80.794
883.28	80.692
883.53	80.558
883.78	80.392
884.03	80.247
884.28	80.068
884.52	79.862
884.77	79.647
885.02	79.457
885.27	79.242
885.52	79.035
885.77	78.848
886.01	78.663
886.26	78.498
886.51	78.371
886.76	78.324
887.01	78.170
887.25	78.031
887.50	77.902
887.75	77.782
888.00	77.679
888.25	77.598
888.49	77.533
888.74	77.533
888.99	77.479
889.24	77.519
889.49	77.496
889.73	77.536
889.98	77.634
890.23	77.678
890.48	77.724
890.73	77.773
890.97	77.817
891.22	77.839
891.47	77.744
891.72	77.724
891.96	77.606
892.21	77.493
892.46	77.405
892.71	77.317
892.96	77.369
893.20	77.443
893.45	77.551
893.70	77.562
893.95	77.611
894.19	77.717
894.44	77.777
894.69	77.822
894.94	77.817
895.19	77.783
895.43	77.666
895.68	77.421
895.93	77.145
896.18	76.824
896.42	76.532
896.67	76.240
896.92	75.914
897.17	75.578
897.41	75.226
897.66	74.898
897.91	74.552
898.16	74.237
898.41	73.983
898.65	73.784
898.90	73.559
899.15	73.385
899.40	73.204
899.64	73.064
899.89	72.952
900.14	72.883
900.39	72.896
900.63	73.003
900.88	73.136
901.13	73.337
901.38	73.519
901.62	73.740
901.87	73.988
902.12	74.192
902.37	74.277
902.61	74.329
902.86	74.344
903.11	74.278
903.35	74.277
903.60	74.253
903.85	74.138
904.10	74.026
904.34	73.906
904.59	73.743
904.84	73.657
905.09	73.681
905.33	73.830
905.58	73.990
905.83	74.198
906.08	74.321
906.32	74.457
906.57	74.543
906.82	74.660
907.06	74.756
907.31	74.864
907.56	74.881
907.81	74.905
908.05	74.827
908.30	74.659
908.55	74.537
908.79	74.339
909.04	74.198
909.29	74.127
909.54	73.930
909.78	73.828
910.03	73.712
910.28	73.515
910.52	73.356
910.77	73.160
911.02	73.095
911.27	72.919
911.51	72.792
911.76	72.639
912.01	72.494
912.25	72.404
912.50	72.217
912.75	72.085
913.00	72.092
913.24	72.097
913.49	72.108
913.74	72.128
913.98	72.182
914.23	72.220
914.48	72.266
914.72	72.190
914.97	72.193
915.22	72.244
915.46	72.257
915.71	72.236
915.96	72.200
916.21	72.174
916.45	72.126
916.70	72.093
916.95	72.097
917.19	72.004
917.44	72.004
917.69	71.896
917.93	71.781
918.18	71.753
918.43	71.751
918.67	71.758
918.92	71.796
919.17	71.843
919.41	71.891
919.66	71.919
919.91	71.968
920.15	72.030
920.40	72.087
920.65	72.156
920.89	72.112
921.14	72.082
921.39	71.976
921.63	71.864
921.88	71.693
922.13	71.527
922.37	71.387
922.62	71.329
922.87	71.283
923.11	71.285
923.36	71.330
923.61	71.372
923.85	71.422
924.10	71.520
924.35	71.660
924.59	71.811
924.84	72.025
925.09	72.212
925.33	72.278
925.58	72.359
925.83	72.471
926.07	72.477
926.32	72.622
926.56	72.660
926.81	72.682
927.06	72.667
927.30	72.664
927.55	72.677
927.80	72.693
928.04	72.770
928.29	72.796
928.54	72.825
928.78	72.950
929.03	72.972
929.27	73.078
929.52	73.243
929.77	73.425
930.01	73.572
930.26	73.551
930.51	73.505
930.75	73.569
931.00	73.677
931.25	73.696
931.49	73.704
931.74	73.667
931.98	73.566
932.23	73.418
932.48	73.263
932.72	73.085
932.97	73.038
933.21	72.946
933.46	72.881
933.71	72.597
933.95	72.435
934.20	72.145
934.45	72.020
934.69	71.792
934.94	71.640
935.18	71.481
935.43	71.414
935.68	71.134
935.92	71.004
936.17	70.565
936.41	70.383
936.66	70.347
936.91	70.358
937.15	70.157
937.40	70.173
937.64	70.116
937.89	70.022
938.14	69.802
938.38	69.891
938.63	69.979
938.87	70.148
939.12	70.257
939.37	70.062
939.61	70.124
939.86	70.187
940.10	70.096
940.35	70.009
940.59	69.727
940.84	69.825
941.09	69.720
941.33	69.487
941.58	69.437
941.82	69.683
942.07	69.697
942.32	69.641
942.56	69.659
942.81	70.043
943.05	70.147
943.30	70.605
943.54	70.835
943.79	70.834
944.04	71.096
944.28	71.275
944.53	70.934
944.77	70.856
945.02	70.804
945.26	70.750
945.51	70.626
945.76	70.828
946.00	70.786
946.25	70.636
946.49	70.879
946.74	70.864
946.98	71.100
947.23	71.327
947.47	71.745
947.72	72.093
947.97	72.402
948.21	72.620
948.46	72.762
948.70	72.898
948.95	73.195
949.19	73.277
949.44	73.503
949.68	73.788
949.93	74.220
950.18	74.355
950.42	74.429
950.67	74.536
950.91	74.463
951.16	74.423
951.40	74.344
951.65	74.259
951.89	74.224
952.14	74.120
952.38	73.718
952.63	73.498
952.87	73.265
953.12	72.972
953.37	72.813
953.61	72.916
953.86	72.858
954.10	73.228
954.35	73.219
954.59	73.241
954.84	73.146
955.08	73.317
955.33	73.303
955.57	73.338
955.82	73.540
956.06	73.520
956.31	73.271
956.55	73.190
956.80	72.735
957.04	72.589
957.29	72.438
957.53	72.455
957.78	72.319
958.02	72.121
958.27	71.984
958.52	71.990
958.76	72.248
959.01	72.396
959.25	72.838
959.50	73.234
959.74	73.580
959.99	73.990
960.23	74.283
960.48	74.617
960.72	75.220
960.97	75.802
961.21	76.047
961.46	76.319
961.70	76.846
961.95	76.933
962.19	77.055
962.44	77.164
962.68	77.228
962.93	77.478
963.17	77.594
963.42	77.624
963.66	77.528
963.90	77.363
964.15	77.014
964.39	76.626
964.64	76.324
964.88	76.182
965.13	75.886
965.37	75.622
965.62	75.304
965.86	75.220
966.11	75.210
966.35	75.208
966.60	75.301
966.84	75.397
967.09	75.474
967.33	75.674
967.58	75.890
967.82	76.338
968.07	76.529
968.31	76.949
968.56	76.932
968.80	77.076
969.05	77.254
969.29	77.513
969.53	77.616
969.78	77.864
970.02	78.047
970.27	78.046
970.51	77.988
970.76	78.109
971.00	78.037
971.25	78.262
971.49	78.287
971.74	78.403
971.98	78.554
972.22	78.771
972.47	78.941
972.71	79.063
972.96	79.091
973.20	79.173
973.45	79.533
973.69	79.737
973.94	79.888
974.18	79.948
974.43	79.863
974.67	80.046
974.91	80.318
975.16	80.460
975.40	80.380
975.65	80.733
975.89	81.010
976.14	81.107
976.38	81.236
976.62	81.192
976.87	81.212
977.11	81.373
977.36	81.365
977.60	81.348
977.85	81.388
978.09	81.592
978.33	81.331
978.58	81.230
978.82	80.797
979.07	80.948
979.31	81.174
979.56	81.155
979.80	81.001
980.04	80.831
980.29	80.854
980.53	80.704
980.78	80.697
981.02	80.850
981.27	80.883
981.51	81.115
981.75	80.894
982.00	80.914
982.24	80.976
982.49	81.165
982.73	81.086
982.97	81.112
983.22	81.263
983.46	81.123
983.71	81.022
983.95	80.838
984.19	80.862
984.44	81.016
984.68	80.894
984.93	80.718
985.17	80.680
985.41	80.813
985.66	80.599
985.90	80.626
986.15	80.737
986.39	80.797
986.63	81.254
986.88	81.483
987.12	81.341
987.37	81.331
987.61	81.777
987.85	81.920
988.10	82.088
988.34	82.130
988.59	81.729
988.83	81.474
989.07	81.520
989.32	81.059
989.56	80.766
989.80	80.622
990.05	80.469
990.29	80.070
990.54	79.779
990.78	79.561
991.02	79.694
991.27	79.599
991.51	79.581
991.75	79.616
992.00	79.890
992.24	79.991
992.49	80.171
992.73	80.332
992.97	80.266
993.22	80.552
993.46	80.649
993.70	80.497
993.95	80.875
994.19	81.081
994.43	80.875
994.68	80.869
994.92	80.866
995.16	80.829
995.41	81.108
995.65	81.848
995.90	81.710
996.14	81.801
996.38	81.990
996.63	82.021
996.87	82.265
997.11	82.242
997.36	82.548
997.60	82.729
997.84	82.717
998.09	82.636
998.33	82.182
998.57	82.394
998.82	82.388
999.06	82.411
999.30	82.609
999.55	82.829
999.79	83.362
1000.03	83.303
1000.28	83.178
1000.52	83.059
1000.76	82.982
1001.01	82.923
1001.25	82.980
1001.49	83.160
1001.74	83.396
1001.98	83.593
1002.22	83.626
1002.47	83.670
1002.71	83.825
1002.95	84.251
1003.20	85.338
1003.44	86.025
1003.68	86.819
1003.93	87.307
1004.17	87.666
1004.41	87.814
1004.66	88.047
1004.90	88.367
1005.14	88.581
1005.38	88.626
1005.63	88.642
1005.87	87.971
1006.11	87.569
1006.36	87.533
1006.60	87.604
1006.84	87.736
1007.09	87.723
1007.33	87.900
1007.57	87.897
1007.82	87.875
1008.06	87.957
1008.30	87.802
1008.54	87.913
1008.79	87.804
1009.03	87.167
1009.27	86.709
1009.52	86.384
1009.76	86.165
1010.00	86.081
1010.24	85.407
1010.49	85.247
1010.73	85.009
1010.97	84.948
1011.22	84.502
1011.46	84.541
1011.70	84.216
1011.95	84.022
1012.19	83.273
1012.43	83.042
1012.67	82.592
1012.92	82.814
1013.16	82.760
1013.40	82.770
1013.64	82.504
1013.89	82.743
1014.13	83.011
1014.37	83.529
1014.62	83.733
1014.86	84.235
1015.10	84.496
1015.34	84.042
1015.59	83.716
1015.83	83.839
1016.07	83.525
1016.31	83.774
1016.56	83.136
1016.80	82.435
1017.04	83.040
1017.28	83.183
1017.53	83.072
1017.77	83.124
1018.01	83.663
1018.26	83.754
1018.50	83.312
1018.74	83.847
1018.98	83.986
1019.23	84.544
1019.47	84.375
1019.71	83.410
1019.95	82.916
1020.20	82.927
1020.44	82.514
1020.68	82.152
1020.92	82.343
1021.16	82.380
1021.41	81.172
1021.65	81.173
1021.89	81.510
1022.13	81.716
1022.38	82.011
1022.62	81.850
1022.86	81.546
1023.10	81.522
1023.35	81.315
1023.59	80.973
1023.83	80.784
1024.07	81.691
1024.32	81.662
1024.56	81.258
1024.80	81.569
1025.04	81.705
1025.28	81.863
1025.53	82.221
1025.77	81.499
1026.01	81.812
1026.25	81.870
1026.50	81.763
1026.74	81.490
1026.98	81.079
1027.22	81.230
1027.46	80.556
1027.71	79.832
1027.95	79.853
1028.19	79.818
1028.43	79.677
1028.68	79.954
1028.92	79.068
1029.16	79.351
1029.40	78.867
1029.64	78.433
1029.89	77.759
1030.13	77.533
1030.37	76.805
1030.61	76.733
1030.85	76.532
1031.10	77.413
1031.34	76.460
1031.58	76.685
1031.82	76.703
1032.06	77.699
1032.31	77.817
1032.55	77.991
1032.79	78.190
1033.03	80.075
1033.27	80.130
1033.52	80.243
1033.76	80.075
1034.00	80.823
1034.24	81.532
1034.48	81.274
1034.72	79.809
1034.97	81.262
1035.21	82.295
1035.45	83.229
1035.69	81.543
1035.93	79.729
1036.18	78.761
1036.42	78.772
1036.66	78.322
1036.90	78.546
1037.14	78.379
1037.38	78.096
1037.63	77.005
1037.87	76.835
1038.11	76.872
1038.35	75.967
1038.59	77.573
1038.83	77.811
1039.08	77.741
1039.32	77.508
1039.56	76.173
1039.80	75.371
1040.04	76.012
1040.28	75.847
1040.53	74.588
1040.77	73.540
1041.01	74.359
1041.25	73.641
1041.49	73.122
1041.73	73.762
1041.97	73.350
1042.22	73.205
1042.46	73.167
1042.70	72.022
1042.94	69.609
1043.18	66.571
1043.42	66.545
1043.67	67.373
1043.91	67.578
1044.15	68.453
1044.39	67.502
1044.63	66.966
1044.87	68.822
1045.11	70.487
1045.36	71.440
1045.60	72.683
1045.84	74.587
1046.08	73.515
1046.32	73.378
1046.56	74.158
1046.80	74.318
1047.04	73.284
1047.29	77.188
1047.53	72.627
1047.77	70.529
1048.01	72.269
1048.25	74.531
1048.49	75.344
1048.73	76.767
1048.97	74.635
1049.22	73.419
1049.46	73.175
1049.70	73.123
1049.94	68.753
1050.18	69.785
1050.42	69.707
1050.66	67.907
1050.90	66.776
1051.15	66.871
1051.39	65.161
1051.63	65.134
1051.87	64.067
1052.11	62.009
1052.35	62.884
1052.59	62.761
1052.83	66.001
1053.07	65.864
1053.31	64.855
1053.56	66.587
1053.80	67.010
1054.04	67.491
1054.28	69.564
1054.52	71.374
1054.76	73.027
1055.00	78.135
1055.24	78.472
1055.48	78.177
1055.72	78.256
1055.97	78.968
1056.21	75.884
1056.45	79.403
1056.69	82.650
1056.93	81.407
1057.17	79.400
1057.41	79.642
1057.65	73.122
1057.89	70.148
1058.13	70.499
1058.37	68.886
1058.61	71.041
1058.86	70.882
1059.10	65.992
1059.34	59.802
1059.58	55.715
1059.82	58.796
1060.06	61.112
1060.30	60.933
1060.54	64.247
1060.78	64.481
1061.02	67.503
1061.26	63.075
1061.50	62.248
1061.74	63.245
1061.98	68.804
1062.23	75.367
1062.47	76.667
1062.71	71.059
1062.95	66.627
1063.19	71.822
1063.43	69.575
1063.67	73.636
1063.91	74.468
1064.15	73.921
1064.39	80.299
1064.63	75.441
1064.87	72.981
1065.11	66.607
1065.35	68.657
1065.59	69.820
1065.83	61.759
1066.07	63.653
1066.31	57.300
1066.55	58.647
1066.80	62.188
1067.04	55.808
1067.28	59.784
1067.52	59.192
1067.76	59.929
1068.00	59.290
1068.24	60.163
1068.48	57.519
1068.72	62.371
1068.96	64.159
1069.20	71.699
1069.44	75.512
1069.68	69.358
1069.92	59.562
1070.16	57.529
1070.40	54.460
1070.64	51.778
1070.88	47.816
1071.12	55.298
1071.36	43.930
1071.60	35.852
1071.84	28.430
1072.08	23.413
1072.32	30.147
1072.56	44.443
1072.80	53.292
1073.04	59.357
1073.28	56.525
1073.52	62.611
1073.76	61.422
1074.00	66.418
1074.24	85.694
1074.48	76.839
1074.72	72.994
1074.96	79.170
1075.20	78.348
1075.44	68.182
1075.68	61.736
1075.92	67.260
1076.16	74.255
1076.40	78.780
1076.64	58.477
1076.88	31.401
1077.12	18.765
1077.36	3.899
1077.60	-5.218
1077.84	0.952
1078.08	2.729
1078.32	10.225
1078.56	19.216
1078.80	17.915
1079.04	5.714
1079.28	19.339
1079.52	28.572
1079.76	35.227
1080.00	47.414
1080.24	52.340
1080.48	41.397
1080.72	55.388
1080.96	63.309
1081.20	57.186
1081.44	62.860
1081.68	86.679
1081.92	81.343
1082.16	81.980
1082.40	84.496
1082.64	92.674
1082.88	110.935
1083.12	114.115
1083.36	98.728
1083.60	110.662
1083.84	104.463
1084.08	110.872
1084.32	107.941
1084.56	108.506
1084.80	112.456
1085.04	110.931
1085.28	108.028
1085.52	97.848
1085.75	103.902
1085.99	101.047
1086.23	80.277
1086.47	78.545
1086.71	73.543
1086.95	69.246
1087.19	64.862
1087.43	50.901
1087.67	56.820
1087.91	57.044
1088.15	55.224
1088.39	47.798
1088.63	43.547
1088.87	55.797
1089.11	56.104
1089.35	59.677
1089.59	54.643
1089.83	71.648
1090.07	64.601
1090.30	23.951
1090.54	-3.086
1090.78	-25.705
1091.02	-17.333
1091.26	29.126
1091.50	30.435
1091.74	27.496
1091.98	41.247
1092.22	110.979
1092.46	30.370
1092.70	39.006
1092.94	54.696
1093.18	54.027
1093.42	62.718
1093.65	77.131
1093.89	62.619
1094.13	89.434
1094.37	156.153
1094.61	186.376
1094.85	70.143
1095.09	84.983
1095.33	52.916
1095.57	65.711
1095.81	55.061
1096.05	61.177
1096.29	64.769
1096.52	61.576
1096.76	64.559
1097.00	39.867
1097.24	31.547
1097.48	21.596
1097.72	26.405
1097.96	82.008
1098.20	65.435
1098.44	183.155
1098.68	252.200
1098.91	3355.485
1099.15	-38.817
1099.39	-112.919
1099.63	-80.392
1099.87	-124.013
1100.11	2407.097
1100.35	417.082
1100.59	535.262
1100.83	2289.302
1101.07	222.932
1101.30	117.385
1101.54	132.680
1101.78	100.511
1102.02	127.825
1102.26	181.683
1102.50	157.911
1102.74	194.671
1102.98	397.301
1103.21	277.684
1103.45	175.257
1103.69	252.007
1103.93	-7038.287
1104.17	198.352
1104.41	114.837
1104.65	956.191
1104.89	423.226
1105.12	401.932
1105.36	483.013
1105.60	996.399
1105.84	-223.421
1106.08	-644.456
1106.32	-318.125
1106.56	-338.760
1106.79	321.624
1107.03	369.766
1107.27	-121.714
1107.51	-77.267
1107.75	-25.992
1107.99	-14.767
1108.23	5.158
1108.46	-37.824
1108.70	-11.840
1108.94	-54.517
1109.18	-52.281
1109.42	56.544
1109.66	47.780
1109.90	80.353
1110.13	133.845
1110.37	150.190
1110.61	303.975
1110.85	235.509
1111.09	217.336
1111.33	258.784
1111.57	213.408
1111.80	172.489
1112.04	118.020
1112.28	136.866
1112.52	169.845
1112.76	162.404
1113.00	163.371
1113.23	136.995
1113.47	164.280
1113.71	210.684
1113.95	154.968
1114.19	219.189
1114.43	931.342
1114.66	4647.166
1114.90	-34.784
1115.14	434.261
1115.38	-121.769
1115.62	15136.538
1115.85	-72.141
1116.09	-93.465
1116.33	-235.023
1116.57	450.230
1116.81	371.540
1117.05	109.987
1117.28	100.280
1117.52	117.487
1117.76	82.181
1118.00	54.680
1118.24	21.604
1118.47	14.630
1118.71	8.581
1118.95	33.874
1119.19	49.504
1119.43	96.411
1119.66	449.020
1119.90	-137.435
1120.14	-53.170
1120.38	-81.727
1120.62	-129.248
1120.85	-247.212
1121.09	-298.478
1121.33	-102.672
1121.57	-78.786
1121.81	-55.789
1122.04	-121.174
1122.28	804.800
1122.52	299.234
1122.76	254.047
1123.00	175.506
1123.23	196.032
1123.47	112.398
1123.71	158.897
1123.95	89.184
1124.18	91.083
1124.42	95.478
1124.66	63.388
1124.90	52.902
1125.14	45.193
1125.37	52.317
1125.61	61.326
1125.85	48.308
1126.09	30.885
1126.32	-251.904
1126.56	106.010
1126.80	-2242.510
1127.04	467.421
>>>>>End Processed Spectral Data<<<<<
